# Version 1.00
#
freq[Hz],re:Trc1_Z<-S11[Ohm],im:Trc1_Z<-S11[Ohm],
9.000000000000000E+003,1.262418466691613E+000,3.150894865026222E+001,
9.955000000000000E+003,1.598441790350511E+000,3.530359208268572E+001,
1.091000000000000E+004,1.991898428628893E+000,3.891863806047768E+001,
1.186500000000000E+004,2.407727857294896E+000,4.243897272348557E+001,
1.282000000000000E+004,2.775416268236889E+000,4.594693211841489E+001,
1.377500000000000E+004,3.178703872294891E+000,4.946304405824893E+001,
1.473000000000000E+004,3.546425094313057E+000,5.305228521910065E+001,
1.568500000000000E+004,3.940559692584157E+000,5.675270828211790E+001,
1.664000000000000E+004,4.351515749021724E+000,6.059773434470636E+001,
1.759500000000000E+004,4.812778226858483E+000,6.442110062881137E+001,
1.855000000000000E+004,5.235256974703841E+000,6.825975517133422E+001,
1.950500000000000E+004,5.734955602275311E+000,7.210226275018025E+001,
2.046000000000000E+004,6.093794465210747E+000,7.607666611172034E+001,
2.141500000000000E+004,6.607637854434985E+000,8.009688972912386E+001,
2.237000000000000E+004,7.052281422831942E+000,8.424507105127917E+001,
2.332500000000000E+004,7.571392184616916E+000,8.848934240844298E+001,
2.428000000000000E+004,8.123880200662224E+000,9.301893854900264E+001,
2.523500000000000E+004,8.596783790474660E+000,9.733507351915654E+001,
2.619000000000000E+004,8.988798621907669E+000,1.014566899056286E+002,
2.714500000000000E+004,9.445674886711752E+000,1.055237013306676E+002,
2.810000000000000E+004,9.725627937977919E+000,1.097633958262037E+002,
2.905500000000000E+004,9.934385429701329E+000,1.141330275548957E+002,
3.001000000000000E+004,1.059609607021543E+001,1.186577259400138E+002,
3.096500000000000E+004,1.112407714416271E+001,1.233226685718532E+002,
3.192000000000000E+004,1.145014624822318E+001,1.280772869619085E+002,
3.287500000000000E+004,1.226325323492535E+001,1.328396200699435E+002,
3.383000000000000E+004,1.257618038035095E+001,1.379319149342849E+002,
3.478500000000000E+004,1.331727443712293E+001,1.430585809323873E+002,
3.574000000000000E+004,1.370953320278541E+001,1.497367360871832E+002,
3.669500000000000E+004,1.418608816320442E+001,1.545835159735913E+002,
3.765000000000000E+004,1.552751540551723E+001,1.608034738300358E+002,
3.860500000000000E+004,1.629313398105424E+001,1.661533959520877E+002,
3.956000000000000E+004,1.711541436430501E+001,1.733280513109322E+002,
4.051500000000000E+004,1.766929970625758E+001,1.806771097073033E+002,
4.147000000000000E+004,1.870418328169286E+001,1.877555653819708E+002,
4.242500000000000E+004,1.991447566388774E+001,1.952867099399644E+002,
4.338000000000000E+004,2.082216724851434E+001,2.037598953198316E+002,
4.433500000000000E+004,2.252592721860546E+001,2.122113439400723E+002,
4.529000000000000E+004,2.346842558413128E+001,2.214860920247242E+002,
4.624500000000000E+004,2.533428621500747E+001,2.317879751353462E+002,
4.720000000000000E+004,2.769026992852194E+001,2.423419386079569E+002,
4.815500000000000E+004,2.888410547392213E+001,2.543433366029907E+002,
4.911000000000000E+004,3.210659963080567E+001,2.668829318653091E+002,
5.006500000000000E+004,3.520426160126662E+001,2.779003181363858E+002,
5.102000000000000E+004,3.730164649805392E+001,2.880204231354258E+002,
5.197500000000000E+004,3.887085742860754E+001,2.995615347246092E+002,
5.293000000000000E+004,4.236787051639000E+001,3.120049125701356E+002,
5.388500000000000E+004,4.550059385789020E+001,3.241744545676173E+002,
5.484000000000000E+004,4.839204651115190E+001,3.378065216426688E+002,
5.579500000000000E+004,5.314253789461320E+001,3.532217357508586E+002,
5.675000000000000E+004,5.679971054391555E+001,3.684581736130750E+002,
5.770500000000000E+004,6.243087309110328E+001,3.865899565893129E+002,
5.866000000000000E+004,6.768387696903989E+001,4.028835720525328E+002,
5.961500000000000E+004,7.535535447952137E+001,4.238969989166894E+002,
6.057000000000000E+004,8.047986072559516E+001,4.456761067242990E+002,
6.152500000000000E+004,8.912353676018356E+001,4.711596835105880E+002,
6.248000000000000E+004,1.023985345878309E+002,4.975431786273529E+002,
6.343500000000000E+004,1.147344986979101E+002,5.257888782569114E+002,
6.439000000000000E+004,1.255792296036987E+002,5.644684631278122E+002,
6.534500000000000E+004,1.426437493030449E+002,5.917867584089603E+002,
6.630000000000000E+004,1.601104488483314E+002,6.390177461724034E+002,
6.725500000000000E+004,1.919147167995879E+002,6.791057159368409E+002,
6.821000000000000E+004,2.179310568527431E+002,7.204988217215996E+002,
6.916500000000000E+004,2.600455913696620E+002,7.738612750008037E+002,
7.012000000000000E+004,2.926699778636765E+002,8.299428413020847E+002,
7.107500000000000E+004,3.619771790501202E+002,9.112804632829548E+002,
7.203000000000000E+004,4.141657069597317E+002,9.664047777673791E+002,
7.298500000000000E+004,5.022275941773804E+002,1.019158001698908E+003,
7.394000000000000E+004,5.557922919407861E+002,1.133957857370255E+003,
7.489500000000000E+004,6.943565674080817E+002,1.263636098868712E+003,
7.585000000000000E+004,8.606885579806052E+002,1.314935657249695E+003,
7.680500000000000E+004,1.101100818042687E+003,1.416671749548043E+003,
7.776000000000000E+004,1.390885356187721E+003,1.500122295935291E+003,
7.871500000000000E+004,1.786878669391515E+003,1.447586022188722E+003,
7.967000000000000E+004,2.380345530075718E+003,1.309621091091296E+003,
8.062500000000000E+004,3.078355773889923E+003,9.522168560304267E+002,
8.158000000000000E+004,3.241632025801928E+003,2.577831743704930E+002,
8.253500000000000E+004,3.110808551269516E+003,-7.653003767310563E+002,
8.349000000000000E+004,2.683852305642184E+003,-1.397204267504297E+003,
8.444500000000000E+004,2.124897044058082E+003,-1.779261449004614E+003,
8.540000000000000E+004,1.443848504098233E+003,-1.776417512951955E+003,
8.635500000000000E+004,1.133341060213158E+003,-1.659196953700212E+003,
8.731000000000000E+004,8.365117422039856E+002,-1.613977265973289E+003,
8.826500000000000E+004,6.552587137374275E+002,-1.460827096123523E+003,
8.922000000000000E+004,5.183744351137822E+002,-1.326622452641496E+003,
9.017500000000000E+004,4.091554920450452E+002,-1.201061127996777E+003,
9.113000000000000E+004,3.633758905645522E+002,-1.133412432562673E+003,
9.208500000000000E+004,3.015181145994858E+002,-1.050932275758170E+003,
9.304000000000000E+004,2.560720478731028E+002,-9.668334561604600E+002,
9.399500000000000E+004,2.066125356942865E+002,-8.965137630498543E+002,
9.495000000000000E+004,2.000476079582170E+002,-8.601292109476166E+002,
9.590500000000000E+004,1.749669590884955E+002,-8.128522439817709E+002,
9.686000000000000E+004,1.508298455357644E+002,-7.666008434592111E+002,
9.781500000000000E+004,1.386351351100468E+002,-7.221195579694580E+002,
9.877000000000000E+004,1.222405782358937E+002,-6.876255596501264E+002,
9.972500000000000E+004,1.119945214356389E+002,-6.496447197806646E+002,
1.006800000000000E+005,1.016733868116572E+002,-6.240151722975726E+002,
1.016350000000000E+005,9.211393304532746E+001,-5.933522443094405E+002,
1.025900000000000E+005,8.306909809143023E+001,-5.749190857328309E+002,
1.035450000000000E+005,7.739696242996392E+001,-5.518965345376112E+002,
1.045000000000000E+005,6.985503333482862E+001,-5.253086525269490E+002,
1.054550000000000E+005,6.451353232088063E+001,-5.082341112583102E+002,
1.064100000000000E+005,5.961166583045554E+001,-4.889240031969940E+002,
1.073650000000000E+005,5.506478356171126E+001,-4.737877970655069E+002,
1.083200000000000E+005,4.997699742456386E+001,-4.576934554898118E+002,
1.092750000000000E+005,5.060282654623393E+001,-4.479680218535523E+002,
1.102300000000000E+005,4.828268836222877E+001,-4.368804682317130E+002,
1.111850000000000E+005,4.479933965761998E+001,-4.211512662605121E+002,
1.121400000000000E+005,4.450085036356196E+001,-4.104278101778776E+002,
1.130950000000000E+005,4.073852998364175E+001,-4.006076522651284E+002,
1.140500000000000E+005,3.688593373711926E+001,-3.914303105188363E+002,
1.150050000000000E+005,3.736798968706723E+001,-3.798360407830878E+002,
1.159600000000000E+005,3.514916277642394E+001,-3.723529800120867E+002,
1.169150000000000E+005,3.450153681227603E+001,-3.641358012802724E+002,
1.178700000000000E+005,3.275710345885454E+001,-3.556938767262656E+002,
1.188250000000000E+005,3.136554998513586E+001,-3.479856308748095E+002,
1.197800000000000E+005,3.098065580278711E+001,-3.423052625005126E+002,
1.207350000000000E+005,2.966049002182729E+001,-3.332681353648746E+002,
1.216900000000000E+005,2.790953660610417E+001,-3.280794273160686E+002,
1.226450000000000E+005,2.662002327637013E+001,-3.209742369023308E+002,
1.236000000000000E+005,2.513610665212168E+001,-3.137799798610321E+002,
1.245550000000000E+005,2.589394133971135E+001,-3.079365375723356E+002,
1.255100000000000E+005,2.434495137898916E+001,-3.002863195920091E+002,
1.264650000000000E+005,2.346542496539749E+001,-2.968201471027206E+002,
1.274200000000000E+005,2.266241318809188E+001,-2.909709149342487E+002,
1.283750000000000E+005,2.066483916348976E+001,-2.865172865498874E+002,
1.293300000000000E+005,2.171908166323888E+001,-2.808208180544043E+002,
1.302850000000000E+005,2.099007630053988E+001,-2.766918726099883E+002,
1.312400000000000E+005,2.070698482536427E+001,-2.722269852618273E+002,
1.321950000000000E+005,2.009644337691552E+001,-2.684620186270035E+002,
1.331500000000000E+005,1.949494294948748E+001,-2.640641546844710E+002,
1.341050000000000E+005,1.994159355240756E+001,-2.609514123080211E+002,
1.350600000000000E+005,1.947510256674098E+001,-2.568434559404699E+002,
1.360150000000000E+005,1.930292670826724E+001,-2.532587758337272E+002,
1.369700000000000E+005,1.733298623761542E+001,-2.499388636234616E+002,
1.379250000000000E+005,1.762824081618162E+001,-2.460147876706003E+002,
1.388800000000000E+005,1.767698611069597E+001,-2.430523955731145E+002,
1.398350000000000E+005,1.720155209526690E+001,-2.397255156408410E+002,
1.407900000000000E+005,1.659093707649405E+001,-2.367315697544197E+002,
1.417450000000000E+005,1.693728385827057E+001,-2.335526299045977E+002,
1.427000000000000E+005,1.628432344444791E+001,-2.295939647465457E+002,
1.436550000000000E+005,1.605724861226922E+001,-2.272773482990056E+002,
1.446100000000000E+005,1.520984743285587E+001,-2.243350626968795E+002,
1.455650000000000E+005,1.553365316708724E+001,-2.217226634309664E+002,
1.465200000000000E+005,1.485740880252530E+001,-2.194101973315511E+002,
1.474750000000000E+005,1.456876105267073E+001,-2.160537293373057E+002,
1.484300000000000E+005,1.393131189343950E+001,-2.134870154580233E+002,
1.493850000000000E+005,1.396666101654476E+001,-2.109369572176048E+002,
1.503400000000000E+005,1.294351937491683E+001,-2.098395640275262E+002,
1.512950000000000E+005,1.222188137708645E+001,-2.076300637706370E+002,
1.522500000000000E+005,1.262553677893951E+001,-2.042475070487826E+002,
1.532050000000000E+005,1.149042933034962E+001,-2.025820733846160E+002,
1.541600000000000E+005,1.121135988893019E+001,-2.005043530097726E+002,
1.551150000000000E+005,1.109432235524856E+001,-1.979418219507318E+002,
1.560700000000000E+005,1.089073997380547E+001,-1.957924643230743E+002,
1.570250000000000E+005,1.021153952088194E+001,-1.941052496431865E+002,
1.579800000000000E+005,9.621322415616874E+000,-1.922415632861647E+002,
1.589350000000000E+005,8.553954842731057E+000,-1.894131112817537E+002,
1.598900000000000E+005,8.685159206929091E+000,-1.883698803514943E+002,
1.608450000000000E+005,8.428411134991126E+000,-1.866924083268153E+002,
1.618000000000000E+005,7.975346311274896E+000,-1.846896838885020E+002,
1.627550000000000E+005,7.699738644192778E+000,-1.831821344860180E+002,
1.637100000000000E+005,7.108938637491356E+000,-1.809602931080892E+002,
1.646650000000000E+005,6.853663232141919E+000,-1.787281632470723E+002,
1.656200000000000E+005,5.907232393806143E+000,-1.775332164715753E+002,
1.665750000000000E+005,6.644028829832173E+000,-1.760744327844278E+002,
1.675300000000000E+005,6.477973089425483E+000,-1.740323446314381E+002,
1.684850000000000E+005,6.111100025952461E+000,-1.725626510088213E+002,
1.694400000000000E+005,6.503308831900757E+000,-1.701698629308831E+002,
1.703950000000000E+005,5.523378517229030E+000,-1.690912126812075E+002,
1.713500000000000E+005,6.202578835043294E+000,-1.678078502993548E+002,
1.723050000000000E+005,5.824972016957037E+000,-1.661956796962180E+002,
1.732600000000000E+005,5.727164333161226E+000,-1.649793432122644E+002,
1.742150000000000E+005,5.952960384365955E+000,-1.628653716261816E+002,
1.751700000000000E+005,5.900669965816795E+000,-1.616217946257771E+002,
1.761250000000000E+005,5.069807989391206E+000,-1.598199144114017E+002,
1.770800000000000E+005,5.847389637929643E+000,-1.590074910034586E+002,
1.780350000000000E+005,5.365208522772201E+000,-1.572652784195860E+002,
1.789900000000000E+005,5.128269910324807E+000,-1.557832982880551E+002,
1.799450000000000E+005,5.066041803276181E+000,-1.545039714496697E+002,
1.809000000000000E+005,4.540505637592974E+000,-1.530663627514900E+002,
1.818550000000000E+005,4.430289066574593E+000,-1.518024011592593E+002,
1.828100000000000E+005,5.519150678945757E+000,-1.506854350853439E+002,
1.837650000000000E+005,5.131764357787472E+000,-1.491768122823451E+002,
1.847200000000000E+005,4.442949148210852E+000,-1.480143356656448E+002,
1.856750000000000E+005,4.995463465705264E+000,-1.473951511534380E+002,
1.866300000000000E+005,4.834051193521579E+000,-1.456861712102792E+002,
1.875850000000000E+005,4.797837007944484E+000,-1.444267058047170E+002,
1.885400000000000E+005,4.265947035496466E+000,-1.434388283811773E+002,
1.894950000000000E+005,4.529933925453530E+000,-1.426142770605811E+002,
1.904500000000000E+005,4.749690620916761E+000,-1.410651341546942E+002,
1.914050000000000E+005,4.767696824371686E+000,-1.402843350967203E+002,
1.923600000000000E+005,4.539220671825034E+000,-1.397509947368109E+002,
1.933150000000000E+005,4.235743609197944E+000,-1.389623342322512E+002,
1.942700000000000E+005,4.487888650349413E+000,-1.372198794915569E+002,
1.952250000000000E+005,4.632678659978383E+000,-1.369726965574643E+002,
1.961800000000000E+005,3.967039805240059E+000,-1.357498252924169E+002,
1.971350000000000E+005,4.341991747884856E+000,-1.350803735130139E+002,
1.980900000000000E+005,4.419807626084454E+000,-1.341574146194450E+002,
1.990450000000000E+005,4.579461827583743E+000,-1.325385551440758E+002,
2.000000000000000E+005,4.234610404730186E+000,-1.323861361388257E+002,
